# Finite Temperature Data for Kitaev Ladder
# chi_max = 300, h = 0.5500
# Columns: T | Sigmax | Sigmay | Sigmaz | S1 | S2 | Wp | Cv
# 
2.000000e+01	-4.936111e-02	-4.936121e-02	-4.913074e-02	3.435740e-05	3.435740e-05	-4.428806e-07	2.424406e-01
1.000000e+01	-6.964417e-02	-6.964466e-02	-6.914372e-02	1.625935e-04	1.625935e-04	-2.038356e-06	8.731947e-01
6.666667e+00	-8.708577e-02	-8.708702e-02	-8.623177e-02	4.659445e-04	4.659445e-04	-4.414393e-06	1.734602e+00
5.000000e+00	-1.019192e-01	-1.019215e-01	-1.006443e-01	1.016793e-03	1.016793e-03	-4.462613e-06	2.679794e+00
4.000000e+00	-1.144430e-01	-1.144468e-01	-1.126954e-01	1.868045e-03	1.868045e-03	3.921214e-06	3.594901e+00
3.333333e+00	-1.249758e-01	-1.249813e-01	-1.227180e-01	3.048585e-03	3.048585e-03	2.892660e-05	4.405989e+00
2.857143e+00	-1.338257e-01	-1.338330e-01	-1.310319e-01	4.564523e-03	4.564523e-03	7.934496e-05	5.075236e+00
2.500000e+00	-1.412721e-01	-1.412814e-01	-1.379270e-01	6.403593e-03	6.403593e-03	1.631992e-04	5.592105e+00
2.222222e+00	-1.475585e-01	-1.475698e-01	-1.436549e-01	8.540582e-03	8.540582e-03	2.867969e-04	5.963809e+00
2.000000e+00	-1.528912e-01	-1.529045e-01	-1.484283e-01	1.094246e-02	1.094246e-02	4.542818e-04	6.207346e+00
1.818182e+00	-1.574417e-01	-1.574569e-01	-1.524238e-01	1.357256e-02	1.357256e-02	6.675902e-04	6.343762e+00
1.666667e+00	-1.613507e-01	-1.613677e-01	-1.557860e-01	1.639370e-02	1.639370e-02	9.266747e-04	6.394502e+00
1.538462e+00	-1.647329e-01	-1.647517e-01	-1.586324e-01	1.937026e-02	1.937026e-02	1.229870e-03	6.379361e+00
1.428571e+00	-1.676812e-01	-1.677017e-01	-1.610579e-01	2.246943e-02	2.246943e-02	1.574302e-03	6.315523e+00
1.333333e+00	-1.702708e-01	-1.702930e-01	-1.631391e-01	2.566187e-02	2.566187e-02	1.956275e-03	6.217285e+00
1.250000e+00	-1.725627e-01	-1.725864e-01	-1.649379e-01	2.892194e-02	2.892194e-02	2.371613e-03	6.096157e+00
1.176471e+00	-1.746060e-01	-1.746312e-01	-1.665038e-01	3.222761e-02	3.222761e-02	2.815939e-03	5.961164e+00
1.111111e+00	-1.764407e-01	-1.764672e-01	-1.678771e-01	3.556028e-02	3.556028e-02	3.284884e-03	5.819204e+00
1.052632e+00	-1.780993e-01	-1.781271e-01	-1.690903e-01	3.890440e-02	3.890440e-02	3.774237e-03	5.675425e+00
1.000000e+00	-1.796084e-01	-1.796374e-01	-1.701695e-01	4.224718e-02	4.224718e-02	4.280057e-03	5.533563e+00
9.523810e-01	-1.809897e-01	-1.810199e-01	-1.711362e-01	4.557819e-02	4.557819e-02	4.798729e-03	5.396241e+00
9.090909e-01	-1.822612e-01	-1.822924e-01	-1.720078e-01	4.888906e-02	4.888906e-02	5.327000e-03	5.265219e+00
8.695652e-01	-1.834375e-01	-1.834697e-01	-1.727985e-01	5.217313e-02	5.217313e-02	5.861993e-03	5.141595e+00
8.333333e-01	-1.845310e-01	-1.845642e-01	-1.735200e-01	5.542522e-02	5.542522e-02	6.401194e-03	5.025974e+00
8.000000e-01	-1.855519e-01	-1.855860e-01	-1.741819e-01	5.864133e-02	5.864133e-02	6.942440e-03	4.918595e+00
7.692308e-01	-1.865089e-01	-1.865438e-01	-1.747922e-01	6.181850e-02	6.181850e-02	7.483895e-03	4.819434e+00
7.407407e-01	-1.874090e-01	-1.874448e-01	-1.753573e-01	6.495457e-02	6.495457e-02	8.024021e-03	4.728283e+00
7.142857e-01	-1.882585e-01	-1.882951e-01	-1.758828e-01	6.804807e-02	6.804807e-02	8.561548e-03	4.644806e+00
6.896552e-01	-1.890626e-01	-1.890998e-01	-1.763732e-01	7.109807e-02	7.109807e-02	9.095447e-03	4.568591e+00
6.666667e-01	-1.898256e-01	-1.898635e-01	-1.768324e-01	7.410410e-02	7.410410e-02	9.624900e-03	4.499177e+00
6.451613e-01	-1.905513e-01	-1.905900e-01	-1.772636e-01	7.706602e-02	7.706602e-02	1.014927e-02	4.436083e+00
6.250000e-01	-1.912432e-01	-1.912825e-01	-1.776695e-01	7.998399e-02	7.998399e-02	1.066809e-02	4.378824e+00
6.060606e-01	-1.919040e-01	-1.919439e-01	-1.780526e-01	8.285839e-02	8.285839e-02	1.118101e-02	4.326926e+00
5.882353e-01	-1.925362e-01	-1.925766e-01	-1.784147e-01	8.568977e-02	8.568977e-02	1.168782e-02	4.279931e+00
5.714286e-01	-1.931419e-01	-1.931829e-01	-1.787575e-01	8.847881e-02	8.847881e-02	1.218839e-02	4.237406e+00
5.555556e-01	-1.937232e-01	-1.937647e-01	-1.790827e-01	9.122630e-02	9.122630e-02	1.268267e-02	4.198944e+00
5.405405e-01	-1.942817e-01	-1.943237e-01	-1.793914e-01	9.393307e-02	9.393307e-02	1.317070e-02	4.164166e+00
5.263158e-01	-1.948188e-01	-1.948613e-01	-1.796847e-01	9.660004e-02	9.660004e-02	1.365256e-02	4.132725e+00
5.128205e-01	-1.953360e-01	-1.953790e-01	-1.799637e-01	9.922814e-02	9.922814e-02	1.412837e-02	4.104300e+00
5.000000e-01	-1.958345e-01	-1.958779e-01	-1.802292e-01	1.018183e-01	1.018183e-01	1.459829e-02	4.078599e+00
4.878049e-01	-1.963152e-01	-1.963591e-01	-1.804821e-01	1.043716e-01	1.043716e-01	1.506253e-02	4.055356e+00
4.761905e-01	-1.967793e-01	-1.968235e-01	-1.807229e-01	1.068888e-01	1.068888e-01	1.552128e-02	4.034332e+00
4.651163e-01	-1.972276e-01	-1.972722e-01	-1.809524e-01	1.093710e-01	1.093710e-01	1.597477e-02	4.015308e+00
4.545455e-01	-1.976608e-01	-1.977058e-01	-1.811710e-01	1.118192e-01	1.118192e-01	1.642325e-02	3.998090e+00
4.444444e-01	-1.980798e-01	-1.981251e-01	-1.813794e-01	1.142341e-01	1.142341e-01	1.686696e-02	3.982502e+00
4.347826e-01	-1.984852e-01	-1.985309e-01	-1.815780e-01	1.166168e-01	1.166168e-01	1.730616e-02	3.968387e+00
4.255319e-01	-1.988777e-01	-1.989237e-01	-1.817672e-01	1.189680e-01	1.189680e-01	1.774108e-02	3.955602e+00
4.166667e-01	-1.992578e-01	-1.993041e-01	-1.819474e-01	1.212888e-01	1.212888e-01	1.817197e-02	3.944023e+00
4.081633e-01	-1.996260e-01	-1.996726e-01	-1.821191e-01	1.235798e-01	1.235798e-01	1.859910e-02	3.933537e+00
4.000000e-01	-1.999829e-01	-2.000298e-01	-1.822825e-01	1.258419e-01	1.258419e-01	1.902268e-02	3.924044e+00
3.921569e-01	-2.003289e-01	-2.003762e-01	-1.824379e-01	1.280758e-01	1.280758e-01	1.944296e-02	3.915454e+00
3.846154e-01	-2.006645e-01	-2.007120e-01	-1.825858e-01	1.302824e-01	1.302824e-01	1.986017e-02	3.907688e+00
3.773585e-01	-2.009901e-01	-2.010379e-01	-1.827263e-01	1.324622e-01	1.324622e-01	2.027452e-02	3.900674e+00
3.703704e-01	-2.013060e-01	-2.013540e-01	-1.828598e-01	1.346161e-01	1.346161e-01	2.068622e-02	3.894351e+00
3.636364e-01	-2.016127e-01	-2.016609e-01	-1.829866e-01	1.367447e-01	1.367447e-01	2.109548e-02	3.888662e+00
3.571429e-01	-2.019104e-01	-2.019589e-01	-1.831067e-01	1.388486e-01	1.388486e-01	2.150249e-02	3.883558e+00
3.508772e-01	-2.021995e-01	-2.022482e-01	-1.832206e-01	1.409285e-01	1.409285e-01	2.190744e-02	3.878993e+00
3.448276e-01	-2.024803e-01	-2.025292e-01	-1.833284e-01	1.429850e-01	1.429850e-01	2.231050e-02	3.874929e+00
3.389831e-01	-2.027530e-01	-2.028021e-01	-1.834304e-01	1.450185e-01	1.450185e-01	2.271183e-02	3.871331e+00
3.333333e-01	-2.030180e-01	-2.030673e-01	-1.835267e-01	1.470298e-01	1.470298e-01	2.311160e-02	3.868167e+00
3.278689e-01	-2.032755e-01	-2.033250e-01	-1.836175e-01	1.490192e-01	1.490192e-01	2.350996e-02	3.865409e+00
3.225806e-01	-2.035258e-01	-2.035755e-01	-1.837031e-01	1.509874e-01	1.509874e-01	2.390704e-02	3.863033e+00
3.174603e-01	-2.037690e-01	-2.038189e-01	-1.837836e-01	1.529348e-01	1.529348e-01	2.430298e-02	3.861016e+00
3.125000e-01	-2.040055e-01	-2.040556e-01	-1.838592e-01	1.548619e-01	1.548619e-01	2.469791e-02	3.859338e+00
3.076923e-01	-2.042355e-01	-2.042857e-01	-1.839300e-01	1.567692e-01	1.567692e-01	2.509194e-02	3.857980e+00
3.030303e-01	-2.044591e-01	-2.045094e-01	-1.839963e-01	1.586570e-01	1.586570e-01	2.548517e-02	3.856928e+00
2.985075e-01	-2.046765e-01	-2.047270e-01	-1.840581e-01	1.605258e-01	1.605258e-01	2.587772e-02	3.856165e+00
2.941176e-01	-2.048880e-01	-2.049386e-01	-1.841157e-01	1.623761e-01	1.623761e-01	2.626967e-02	3.855679e+00
2.898551e-01	-2.050936e-01	-2.051445e-01	-1.841691e-01	1.642081e-01	1.642081e-01	2.666112e-02	3.855457e+00
2.857143e-01	-2.052937e-01	-2.053447e-01	-1.842185e-01	1.660223e-01	1.660223e-01	2.705215e-02	3.855489e+00
2.816901e-01	-2.054884e-01	-2.055395e-01	-1.842641e-01	1.678191e-01	1.678191e-01	2.744283e-02	3.855763e+00
2.777778e-01	-2.056777e-01	-2.057290e-01	-1.843059e-01	1.695988e-01	1.695988e-01	2.783323e-02	3.856270e+00
2.739726e-01	-2.058620e-01	-2.059133e-01	-1.843442e-01	1.713617e-01	1.713617e-01	2.822342e-02	3.857002e+00
2.702703e-01	-2.060413e-01	-2.060927e-01	-1.843789e-01	1.731081e-01	1.731081e-01	2.861346e-02	3.857951e+00
2.666667e-01	-2.062157e-01	-2.062673e-01	-1.844103e-01	1.748385e-01	1.748385e-01	2.900340e-02	3.859108e+00
2.631579e-01	-2.063855e-01	-2.064372e-01	-1.844384e-01	1.765530e-01	1.765530e-01	2.939330e-02	3.860466e+00
2.597403e-01	-2.065507e-01	-2.066025e-01	-1.844634e-01	1.782519e-01	1.782519e-01	2.978319e-02	3.862019e+00
2.564103e-01	-2.067115e-01	-2.067634e-01	-1.844853e-01	1.799356e-01	1.799356e-01	3.017312e-02	3.863760e+00
2.531646e-01	-2.068679e-01	-2.069200e-01	-1.845043e-01	1.816043e-01	1.816043e-01	3.056313e-02	3.865683e+00
2.500000e-01	-2.070202e-01	-2.070723e-01	-1.845204e-01	1.832583e-01	1.832583e-01	3.095324e-02	3.867782e+00
2.469136e-01	-2.071685e-01	-2.072207e-01	-1.845338e-01	1.848979e-01	1.848979e-01	3.134350e-02	3.870051e+00
2.439024e-01	-2.073127e-01	-2.073650e-01	-1.845445e-01	1.865232e-01	1.865232e-01	3.173392e-02	3.872486e+00
2.409639e-01	-2.074532e-01	-2.075056e-01	-1.845527e-01	1.881345e-01	1.881345e-01	3.212452e-02	3.875080e+00
2.380952e-01	-2.075898e-01	-2.076423e-01	-1.845583e-01	1.897321e-01	1.897321e-01	3.251533e-02	3.877828e+00
2.352941e-01	-2.077229e-01	-2.077754e-01	-1.845616e-01	1.913162e-01	1.913162e-01	3.290637e-02	3.880726e+00
2.325581e-01	-2.078524e-01	-2.079050e-01	-1.845625e-01	1.928869e-01	1.928869e-01	3.329765e-02	3.883768e+00
2.298851e-01	-2.079784e-01	-2.080311e-01	-1.845612e-01	1.944445e-01	1.944445e-01	3.368918e-02	3.886951e+00
2.272727e-01	-2.081011e-01	-2.081539e-01	-1.845577e-01	1.959892e-01	1.959892e-01	3.408097e-02	3.890269e+00
2.247191e-01	-2.082205e-01	-2.082734e-01	-1.845521e-01	1.975213e-01	1.975213e-01	3.447302e-02	3.893718e+00
2.222222e-01	-2.083368e-01	-2.083897e-01	-1.845444e-01	1.990408e-01	1.990408e-01	3.486535e-02	3.897293e+00
2.197802e-01	-2.084499e-01	-2.085029e-01	-1.845348e-01	2.005479e-01	2.005479e-01	3.525796e-02	3.900990e+00
2.173913e-01	-2.085600e-01	-2.086131e-01	-1.845233e-01	2.020429e-01	2.020429e-01	3.565085e-02	3.904806e+00
2.150538e-01	-2.086671e-01	-2.087203e-01	-1.845099e-01	2.035259e-01	2.035259e-01	3.604401e-02	3.908735e+00
2.127660e-01	-2.087714e-01	-2.088246e-01	-1.844948e-01	2.049972e-01	2.049972e-01	3.643745e-02	3.912773e+00
2.105263e-01	-2.088729e-01	-2.089262e-01	-1.844779e-01	2.064567e-01	2.064567e-01	3.683116e-02	3.916918e+00
2.083333e-01	-2.089717e-01	-2.090250e-01	-1.844594e-01	2.079048e-01	2.079048e-01	3.722514e-02	3.921164e+00
2.061856e-01	-2.090678e-01	-2.091212e-01	-1.844393e-01	2.093415e-01	2.093415e-01	3.761938e-02	3.925508e+00
2.040816e-01	-2.091613e-01	-2.092147e-01	-1.844176e-01	2.107671e-01	2.107671e-01	3.801388e-02	3.929947e+00
2.020202e-01	-2.092523e-01	-2.093058e-01	-1.843944e-01	2.121816e-01	2.121816e-01	3.840863e-02	3.934475e+00
2.000000e-01	-2.093408e-01	-2.093944e-01	-1.843697e-01	2.135852e-01	2.135852e-01	3.880361e-02	3.939091e+00
1.980198e-01	-2.094270e-01	-2.094805e-01	-1.843437e-01	2.149780e-01	2.149780e-01	3.919882e-02	3.943789e+00
1.960784e-01	-2.095107e-01	-2.095644e-01	-1.843162e-01	2.163602e-01	2.163602e-01	3.959425e-02	3.948567e+00
1.941748e-01	-2.095922e-01	-2.096459e-01	-1.842875e-01	2.177320e-01	2.177320e-01	3.998988e-02	3.953422e+00
1.923077e-01	-2.096715e-01	-2.097252e-01	-1.842575e-01	2.190933e-01	2.190933e-01	4.038571e-02	3.958349e+00
1.904762e-01	-2.097486e-01	-2.098023e-01	-1.842262e-01	2.204445e-01	2.204445e-01	4.078172e-02	3.963345e+00
1.886792e-01	-2.098235e-01	-2.098773e-01	-1.841938e-01	2.217855e-01	2.217855e-01	4.117789e-02	3.968407e+00
1.869159e-01	-2.098964e-01	-2.099503e-01	-1.841602e-01	2.231165e-01	2.231165e-01	4.157421e-02	3.973533e+00
1.851852e-01	-2.099673e-01	-2.100212e-01	-1.841255e-01	2.244376e-01	2.244376e-01	4.197067e-02	3.978718e+00
1.834862e-01	-2.100362e-01	-2.100901e-01	-1.840898e-01	2.257490e-01	2.257490e-01	4.236725e-02	3.983960e+00
1.818182e-01	-2.101031e-01	-2.101571e-01	-1.840530e-01	2.270507e-01	2.270507e-01	4.276393e-02	3.989255e+00
1.801802e-01	-2.101682e-01	-2.102222e-01	-1.840152e-01	2.283429e-01	2.283429e-01	4.316070e-02	3.994601e+00
1.785714e-01	-2.102315e-01	-2.102855e-01	-1.839764e-01	2.296256e-01	2.296256e-01	4.355755e-02	3.999995e+00
1.769912e-01	-2.102929e-01	-2.103470e-01	-1.839368e-01	2.308990e-01	2.308990e-01	4.395445e-02	4.005434e+00
1.754386e-01	-2.103526e-01	-2.104067e-01	-1.838962e-01	2.321631e-01	2.321631e-01	4.435139e-02	4.010915e+00
1.739130e-01	-2.104106e-01	-2.104647e-01	-1.838547e-01	2.334181e-01	2.334181e-01	4.474835e-02	4.016436e+00
1.724138e-01	-2.104669e-01	-2.105211e-01	-1.838124e-01	2.346641e-01	2.346641e-01	4.514532e-02	4.021993e+00
1.709402e-01	-2.105216e-01	-2.105758e-01	-1.837693e-01	2.359011e-01	2.359011e-01	4.554227e-02	4.027584e+00
1.694915e-01	-2.105747e-01	-2.106289e-01	-1.837254e-01	2.371292e-01	2.371292e-01	4.593919e-02	4.033207e+00
1.680672e-01	-2.106262e-01	-2.106804e-01	-1.836808e-01	2.383486e-01	2.383486e-01	4.633607e-02	4.038859e+00
1.666667e-01	-2.106762e-01	-2.107304e-01	-1.836354e-01	2.395593e-01	2.395593e-01	4.673287e-02	4.044538e+00
1.652893e-01	-2.107247e-01	-2.107790e-01	-1.835893e-01	2.407615e-01	2.407615e-01	4.712959e-02	4.050241e+00
1.639344e-01	-2.107717e-01	-2.108261e-01	-1.835426e-01	2.419551e-01	2.419551e-01	4.752622e-02	4.055966e+00
1.626016e-01	-2.108174e-01	-2.108717e-01	-1.834952e-01	2.431403e-01	2.431403e-01	4.792272e-02	4.061711e+00
1.612903e-01	-2.108616e-01	-2.109160e-01	-1.834472e-01	2.443172e-01	2.443172e-01	4.831908e-02	4.067474e+00
1.600000e-01	-2.109045e-01	-2.109589e-01	-1.833986e-01	2.454858e-01	2.454858e-01	4.871528e-02	4.073252e+00
1.587302e-01	-2.109461e-01	-2.110005e-01	-1.833494e-01	2.466463e-01	2.466463e-01	4.911132e-02	4.079043e+00
1.574803e-01	-2.109863e-01	-2.110408e-01	-1.832996e-01	2.477987e-01	2.477987e-01	4.950716e-02	4.084845e+00
1.562500e-01	-2.110253e-01	-2.110798e-01	-1.832493e-01	2.489430e-01	2.489430e-01	4.990279e-02	4.090656e+00
1.550388e-01	-2.110631e-01	-2.111175e-01	-1.831985e-01	2.500794e-01	2.500794e-01	5.029819e-02	4.096475e+00
1.538462e-01	-2.110996e-01	-2.111541e-01	-1.831472e-01	2.512079e-01	2.512079e-01	5.069335e-02	4.102299e+00
1.526718e-01	-2.111350e-01	-2.111895e-01	-1.830954e-01	2.523287e-01	2.523287e-01	5.108825e-02	4.108127e+00
1.515152e-01	-2.111692e-01	-2.112237e-01	-1.830432e-01	2.534417e-01	2.534417e-01	5.148287e-02	4.113956e+00
1.503759e-01	-2.112023e-01	-2.112568e-01	-1.829905e-01	2.545471e-01	2.545471e-01	5.187720e-02	4.119785e+00
1.492537e-01	-2.112342e-01	-2.112888e-01	-1.829374e-01	2.556448e-01	2.556448e-01	5.227121e-02	4.125612e+00
1.481481e-01	-2.112651e-01	-2.113196e-01	-1.828839e-01	2.567351e-01	2.567351e-01	5.266489e-02	4.131436e+00
1.470588e-01	-2.112949e-01	-2.113495e-01	-1.828300e-01	2.578179e-01	2.578179e-01	5.305823e-02	4.137255e+00
1.459854e-01	-2.113237e-01	-2.113783e-01	-1.827757e-01	2.588933e-01	2.588933e-01	5.345120e-02	4.143067e+00
1.449275e-01	-2.113515e-01	-2.114060e-01	-1.827211e-01	2.599614e-01	2.599614e-01	5.384380e-02	4.148871e+00
1.438849e-01	-2.113782e-01	-2.114328e-01	-1.826661e-01	2.610223e-01	2.610223e-01	5.423600e-02	4.154665e+00
1.428571e-01	-2.114040e-01	-2.114587e-01	-1.826109e-01	2.620759e-01	2.620759e-01	5.462779e-02	4.160448e+00
1.418440e-01	-2.114289e-01	-2.114835e-01	-1.825553e-01	2.631225e-01	2.631225e-01	5.501915e-02	4.166218e+00
1.408451e-01	-2.114528e-01	-2.115075e-01	-1.824994e-01	2.641619e-01	2.641619e-01	5.541007e-02	4.171975e+00
1.398601e-01	-2.114758e-01	-2.115305e-01	-1.824432e-01	2.651944e-01	2.651944e-01	5.580053e-02	4.177716e+00
1.388889e-01	-2.114980e-01	-2.115526e-01	-1.823868e-01	2.662199e-01	2.662199e-01	5.619052e-02	4.183440e+00
1.379310e-01	-2.115192e-01	-2.115739e-01	-1.823301e-01	2.672385e-01	2.672385e-01	5.658003e-02	4.189146e+00
1.369863e-01	-2.115397e-01	-2.115943e-01	-1.822732e-01	2.682503e-01	2.682503e-01	5.696903e-02	4.194833e+00
1.360544e-01	-2.115592e-01	-2.116139e-01	-1.822160e-01	2.692553e-01	2.692553e-01	5.735751e-02	4.200500e+00
1.351351e-01	-2.115780e-01	-2.116327e-01	-1.821586e-01	2.702536e-01	2.702536e-01	5.774546e-02	4.206146e+00
1.342282e-01	-2.115960e-01	-2.116507e-01	-1.821011e-01	2.712452e-01	2.712452e-01	5.813287e-02	4.211768e+00
1.333333e-01	-2.116132e-01	-2.116679e-01	-1.820433e-01	2.722302e-01	2.722302e-01	5.851972e-02	4.217367e+00
1.324503e-01	-2.116296e-01	-2.116843e-01	-1.819853e-01	2.732087e-01	2.732087e-01	5.890600e-02	4.222941e+00
1.315789e-01	-2.116453e-01	-2.117000e-01	-1.819272e-01	2.741807e-01	2.741807e-01	5.929170e-02	4.228489e+00
1.307190e-01	-2.116603e-01	-2.117150e-01	-1.818689e-01	2.751462e-01	2.751462e-01	5.967679e-02	4.234010e+00
1.298701e-01	-2.116745e-01	-2.117292e-01	-1.818105e-01	2.761053e-01	2.761053e-01	6.006127e-02	4.239504e+00
1.290323e-01	-2.116880e-01	-2.117428e-01	-1.817519e-01	2.770581e-01	2.770581e-01	6.044513e-02	4.244968e+00
1.282051e-01	-2.117009e-01	-2.117556e-01	-1.816932e-01	2.780046e-01	2.780046e-01	6.082836e-02	4.250403e+00
1.273885e-01	-2.117131e-01	-2.117678e-01	-1.816344e-01	2.789448e-01	2.789448e-01	6.121093e-02	4.255808e+00
1.265823e-01	-2.117246e-01	-2.117794e-01	-1.815755e-01	2.798788e-01	2.798788e-01	6.159285e-02	4.261180e+00
1.257862e-01	-2.117355e-01	-2.117903e-01	-1.815164e-01	2.808067e-01	2.808067e-01	6.197409e-02	4.266521e+00
1.250000e-01	-2.117458e-01	-2.118005e-01	-1.814573e-01	2.817285e-01	2.817285e-01	6.235464e-02	4.271828e+00
1.242236e-01	-2.117554e-01	-2.118102e-01	-1.813981e-01	2.826443e-01	2.826443e-01	6.273451e-02	4.277101e+00
1.234568e-01	-2.117645e-01	-2.118192e-01	-1.813388e-01	2.835540e-01	2.835540e-01	6.311366e-02	4.282340e+00
1.226994e-01	-2.117729e-01	-2.118277e-01	-1.812794e-01	2.844578e-01	2.844578e-01	6.349210e-02	4.287543e+00
1.219512e-01	-2.117808e-01	-2.118356e-01	-1.812200e-01	2.853557e-01	2.853557e-01	6.386981e-02	4.292710e+00
1.212121e-01	-2.117882e-01	-2.118429e-01	-1.811605e-01	2.862477e-01	2.862477e-01	6.424678e-02	4.297841e+00
1.204819e-01	-2.117949e-01	-2.118497e-01	-1.811010e-01	2.871339e-01	2.871339e-01	6.462301e-02	4.302934e+00
1.197605e-01	-2.118012e-01	-2.118559e-01	-1.810414e-01	2.880144e-01	2.880144e-01	6.499848e-02	4.307988e+00
1.190476e-01	-2.118069e-01	-2.118616e-01	-1.809819e-01	2.888891e-01	2.888891e-01	6.537317e-02	4.313004e+00
1.183432e-01	-2.118121e-01	-2.118668e-01	-1.809222e-01	2.897581e-01	2.897581e-01	6.574709e-02	4.317981e+00
1.176471e-01	-2.118167e-01	-2.118715e-01	-1.808626e-01	2.906214e-01	2.906214e-01	6.612023e-02	4.322917e+00
1.169591e-01	-2.118209e-01	-2.118757e-01	-1.808030e-01	2.914792e-01	2.914792e-01	6.649256e-02	4.327813e+00
1.162791e-01	-2.118246e-01	-2.118794e-01	-1.807433e-01	2.923314e-01	2.923314e-01	6.686410e-02	4.332669e+00
1.156069e-01	-2.118279e-01	-2.118826e-01	-1.806837e-01	2.931781e-01	2.931781e-01	6.723482e-02	4.337482e+00
1.149425e-01	-2.118306e-01	-2.118854e-01	-1.806240e-01	2.940193e-01	2.940193e-01	6.760471e-02	4.342253e+00
1.142857e-01	-2.118329e-01	-2.118877e-01	-1.805644e-01	2.948551e-01	2.948551e-01	6.797378e-02	4.346982e+00
1.136364e-01	-2.118348e-01	-2.118896e-01	-1.805048e-01	2.956855e-01	2.956855e-01	6.834201e-02	4.351668e+00
1.129944e-01	-2.118362e-01	-2.118910e-01	-1.804452e-01	2.965106e-01	2.965106e-01	6.870939e-02	4.356311e+00
1.123596e-01	-2.118372e-01	-2.118920e-01	-1.803857e-01	2.973303e-01	2.973303e-01	6.907592e-02	4.360909e+00
1.117318e-01	-2.118378e-01	-2.118926e-01	-1.803261e-01	2.981448e-01	2.981448e-01	6.944158e-02	4.365463e+00
1.111111e-01	-2.118380e-01	-2.118928e-01	-1.802667e-01	2.989540e-01	2.989540e-01	6.980638e-02	4.369973e+00
1.104972e-01	-2.118378e-01	-2.118925e-01	-1.802072e-01	2.997580e-01	2.997580e-01	7.017030e-02	4.374437e+00
1.098901e-01	-2.118372e-01	-2.118919e-01	-1.801479e-01	3.005569e-01	3.005569e-01	7.053334e-02	4.378856e+00
1.092896e-01	-2.118362e-01	-2.118909e-01	-1.800885e-01	3.013507e-01	3.013507e-01	7.089549e-02	4.383229e+00
1.086957e-01	-2.118348e-01	-2.118896e-01	-1.800293e-01	3.021393e-01	3.021393e-01	7.125674e-02	4.387556e+00
1.081081e-01	-2.118331e-01	-2.118878e-01	-1.799701e-01	3.029230e-01	3.029230e-01	7.161709e-02	4.391837e+00
