# Finite Temperature Data for Kitaev Ladder
# chi_max = 100, h = 0.8000
# Columns: T | Sigmax | Sigmay | Sigmaz | S1 | S2 | Wp | Cv
# 
2.000000e+01	-7.162650e-02	-7.162677e-02	-7.129347e-02	5.301565e-05	5.301565e-05	-2.268622e-06	3.307163e-01
1.000000e+01	-1.008604e-01	-1.008615e-01	-1.001416e-01	2.299169e-04	2.299169e-04	-1.239163e-05	1.150475e+00
6.666667e+00	-1.258986e-01	-1.259012e-01	-1.246816e-01	6.095007e-04	6.095007e-04	-3.718891e-05	2.206025e+00
5.000000e+00	-1.471622e-01	-1.471668e-01	-1.453610e-01	1.236695e-03	1.236695e-03	-8.079333e-05	3.293478e+00
4.000000e+00	-1.651548e-01	-1.651620e-01	-1.627085e-01	2.122271e-03	2.122271e-03	-1.441653e-04	4.279807e+00
3.333333e+00	-1.803846e-01	-1.803946e-01	-1.772535e-01	3.249694e-03	3.249694e-03	-2.264496e-04	5.097339e+00
2.857143e+00	-1.933190e-01	-1.933320e-01	-1.894813e-01	4.585045e-03	4.585045e-03	-3.266186e-04	5.726327e+00
2.500000e+00	-2.043647e-01	-2.043808e-01	-1.998128e-01	6.085996e-03	6.085996e-03	-4.444613e-04	6.176438e+00
2.222222e+00	-2.138636e-01	-2.138827e-01	-2.086010e-01	7.708418e-03	7.708418e-03	-5.808489e-04	6.472130e+00
2.000000e+00	-2.220970e-01	-2.221189e-01	-2.161354e-01	9.410593e-03	9.410593e-03	-7.375239e-04	6.642912e+00
1.818182e+00	-2.292929e-01	-2.293176e-01	-2.226502e-01	1.115552e-02	1.115552e-02	-9.166967e-04	6.717723e+00
1.666667e+00	-2.356351e-01	-2.356624e-01	-2.283333e-01	1.291189e-02	1.291189e-02	-1.120647e-03	6.722149e+00
1.538462e+00	-2.412711e-01	-2.413009e-01	-2.333351e-01	1.465416e-02	1.465416e-02	-1.351403e-03	6.677416e+00
1.428571e+00	-2.463192e-01	-2.463513e-01	-2.377756e-01	1.636225e-02	1.636225e-02	-1.610547e-03	6.600356e+00
1.333333e+00	-2.508745e-01	-2.509088e-01	-2.417507e-01	1.802085e-02	1.802085e-02	-1.899109e-03	6.503845e+00
1.250000e+00	-2.550135e-01	-2.550498e-01	-2.453371e-01	1.961877e-02	1.961877e-02	-2.217547e-03	6.397424e+00
1.176471e+00	-2.587984e-01	-2.588365e-01	-2.485967e-01	2.114821e-02	2.114821e-02	-2.565778e-03	6.287937e+00
1.111111e+00	-2.622794e-01	-2.623193e-01	-2.515791e-01	2.260417e-02	2.260417e-02	-2.943238e-03	6.180118e+00
1.052632e+00	-2.654980e-01	-2.655395e-01	-2.543249e-01	2.398380e-02	2.398380e-02	-3.348957e-03	6.077085e+00
1.000000e+00	-2.684879e-01	-2.685309e-01	-2.568670e-01	2.528600e-02	2.528600e-02	-3.781641e-03	5.980752e+00
9.523810e-01	-2.712774e-01	-2.713218e-01	-2.592324e-01	2.651099e-02	2.651099e-02	-4.239746e-03	5.892150e+00
9.090909e-01	-2.738898e-01	-2.739355e-01	-2.614434e-01	2.765996e-02	2.765996e-02	-4.721554e-03	5.811681e+00
8.695652e-01	-2.763449e-01	-2.763918e-01	-2.635185e-01	2.873484e-02	2.873484e-02	-5.225228e-03	5.739311e+00
8.333333e-01	-2.786592e-01	-2.787072e-01	-2.654733e-01	2.973806e-02	2.973806e-02	-5.748867e-03	5.674712e+00
8.000000e-01	-2.808469e-01	-2.808960e-01	-2.673206e-01	3.067243e-02	3.067243e-02	-6.290551e-03	5.617374e+00
7.692308e-01	-2.829200e-01	-2.829702e-01	-2.690716e-01	3.154095e-02	3.154095e-02	-6.848370e-03	5.566679e+00
7.407407e-01	-2.848891e-01	-2.849402e-01	-2.707355e-01	3.234675e-02	3.234675e-02	-7.420458e-03	5.521961e+00
7.142857e-01	-2.867630e-01	-2.868150e-01	-2.723206e-01	3.309301e-02	3.309301e-02	-8.005009e-03	5.482543e+00
6.896552e-01	-2.885497e-01	-2.886026e-01	-2.738336e-01	3.378290e-02	3.378290e-02	-8.600292e-03	5.447763e+00
6.666667e-01	-2.902562e-01	-2.903098e-01	-2.752807e-01	3.441953e-02	3.441953e-02	-9.204666e-03	5.416995e+00
6.451613e-01	-2.918883e-01	-2.919427e-01	-2.766671e-01	3.500594e-02	3.500594e-02	-9.816580e-03	5.389656e+00
6.250000e-01	-2.934517e-01	-2.935067e-01	-2.779974e-01	3.554505e-02	3.554505e-02	-1.043458e-02	5.365216e+00
6.060606e-01	-2.949510e-01	-2.950067e-01	-2.792758e-01	3.603966e-02	3.603966e-02	-1.105733e-02	5.343197e+00
5.882353e-01	-2.963907e-01	-2.964470e-01	-2.805058e-01	3.649247e-02	3.649247e-02	-1.168356e-02	5.323171e+00
5.714286e-01	-2.977744e-01	-2.978314e-01	-2.816908e-01	3.690602e-02	3.690602e-02	-1.231211e-02	5.304766e+00
5.555556e-01	-2.991059e-01	-2.991634e-01	-2.828336e-01	3.728274e-02	3.728274e-02	-1.294194e-02	5.287654e+00
5.405405e-01	-3.003882e-01	-3.004462e-01	-2.839368e-01	3.762490e-02	3.762490e-02	-1.357207e-02	5.271555e+00
5.263158e-01	-3.016242e-01	-3.016827e-01	-2.850028e-01	3.793468e-02	3.793468e-02	-1.420160e-02	5.256226e+00
5.128205e-01	-3.028166e-01	-3.028755e-01	-2.860338e-01	3.821410e-02	3.821410e-02	-1.482975e-02	5.241465e+00
5.000000e-01	-3.039677e-01	-3.040271e-01	-2.870317e-01	3.846507e-02	3.846507e-02	-1.545578e-02	5.227101e+00
4.878049e-01	-3.050798e-01	-3.051397e-01	-2.879984e-01	3.868940e-02	3.868940e-02	-1.607904e-02	5.212992e+00
4.761905e-01	-3.061550e-01	-3.062153e-01	-2.889355e-01	3.888876e-02	3.888876e-02	-1.669895e-02	5.199022e+00
4.651163e-01	-3.071951e-01	-3.072558e-01	-2.898445e-01	3.906475e-02	3.906475e-02	-1.731497e-02	5.185099e+00
4.545455e-01	-3.082020e-01	-3.082630e-01	-2.907268e-01	3.921885e-02	3.921885e-02	-1.792665e-02	5.171148e+00
4.444444e-01	-3.091771e-01	-3.092385e-01	-2.915837e-01	3.935244e-02	3.935244e-02	-1.853356e-02	5.157113e+00
4.347826e-01	-3.101220e-01	-3.101838e-01	-2.924164e-01	3.946682e-02	3.946682e-02	-1.913536e-02	5.142951e+00
4.255319e-01	-3.110382e-01	-3.111003e-01	-2.932261e-01	3.956322e-02	3.956322e-02	-1.973171e-02	5.128631e+00
4.166667e-01	-3.119270e-01	-3.119893e-01	-2.940137e-01	3.964278e-02	3.964278e-02	-2.032235e-02	5.114132e+00
4.081633e-01	-3.127895e-01	-3.128522e-01	-2.947803e-01	3.970656e-02	3.970656e-02	-2.090703e-02	5.099444e+00
4.000000e-01	-3.136270e-01	-3.136899e-01	-2.955268e-01	3.975557e-02	3.975557e-02	-2.148556e-02	5.084559e+00
3.921569e-01	-3.144405e-01	-3.145037e-01	-2.962540e-01	3.979074e-02	3.979074e-02	-2.205775e-02	5.069479e+00
3.846154e-01	-3.152311e-01	-3.152945e-01	-2.969627e-01	3.981294e-02	3.981294e-02	-2.262347e-02	5.054208e+00
3.773585e-01	-3.159996e-01	-3.160633e-01	-2.976537e-01	3.982301e-02	3.982301e-02	-2.318259e-02	5.038756e+00
3.703704e-01	-3.167471e-01	-3.168110e-01	-2.983278e-01	3.982169e-02	3.982169e-02	-2.373503e-02	5.023132e+00
3.636364e-01	-3.174743e-01	-3.175385e-01	-2.989854e-01	3.980972e-02	3.980972e-02	-2.428072e-02	5.007351e+00
3.571429e-01	-3.181821e-01	-3.182465e-01	-2.996274e-01	3.978777e-02	3.978777e-02	-2.481959e-02	4.991426e+00
3.508772e-01	-3.188713e-01	-3.189358e-01	-3.002542e-01	3.975646e-02	3.975646e-02	-2.535162e-02	4.975373e+00
3.448276e-01	-3.195424e-01	-3.196072e-01	-3.008665e-01	3.971640e-02	3.971640e-02	-2.587678e-02	4.959208e+00
3.389831e-01	-3.201963e-01	-3.202613e-01	-3.014647e-01	3.966812e-02	3.966812e-02	-2.639507e-02	4.942948e+00
3.333333e-01	-3.208336e-01	-3.208988e-01	-3.020495e-01	3.961216e-02	3.961216e-02	-2.690649e-02	4.926607e+00
3.278689e-01	-3.214549e-01	-3.215202e-01	-3.026211e-01	3.954899e-02	3.954899e-02	-2.741107e-02	4.910203e+00
3.225806e-01	-3.220607e-01	-3.221262e-01	-3.031802e-01	3.947907e-02	3.947907e-02	-2.790883e-02	4.893751e+00
3.174603e-01	-3.226517e-01	-3.227173e-01	-3.037272e-01	3.940284e-02	3.940284e-02	-2.839980e-02	4.877265e+00
3.125000e-01	-3.232283e-01	-3.232941e-01	-3.042624e-01	3.932069e-02	3.932069e-02	-2.888404e-02	4.860760e+00
3.076923e-01	-3.237911e-01	-3.238571e-01	-3.047862e-01	3.923299e-02	3.923299e-02	-2.936159e-02	4.844249e+00
3.030303e-01	-3.243405e-01	-3.244066e-01	-3.052990e-01	3.914011e-02	3.914011e-02	-2.983251e-02	4.827745e+00
2.985075e-01	-3.248770e-01	-3.249433e-01	-3.058012e-01	3.904237e-02	3.904237e-02	-3.029686e-02	4.811260e+00
2.941176e-01	-3.254011e-01	-3.254675e-01	-3.062931e-01	3.894009e-02	3.894009e-02	-3.075472e-02	4.794804e+00
2.898551e-01	-3.259130e-01	-3.259796e-01	-3.067750e-01	3.883356e-02	3.883356e-02	-3.120615e-02	4.778389e+00
2.857143e-01	-3.264134e-01	-3.264800e-01	-3.072472e-01	3.872305e-02	3.872305e-02	-3.165122e-02	4.762024e+00
2.816901e-01	-3.269024e-01	-3.269692e-01	-3.077101e-01	3.860882e-02	3.860882e-02	-3.209002e-02	4.745717e+00
2.777778e-01	-3.273805e-01	-3.274474e-01	-3.081638e-01	3.849112e-02	3.849112e-02	-3.252262e-02	4.729477e+00
2.739726e-01	-3.278481e-01	-3.279151e-01	-3.086088e-01	3.837018e-02	3.837018e-02	-3.294911e-02	4.713311e+00
2.702703e-01	-3.283054e-01	-3.283726e-01	-3.090451e-01	3.824621e-02	3.824621e-02	-3.336956e-02	4.697226e+00
2.666667e-01	-3.287528e-01	-3.288201e-01	-3.094731e-01	3.811941e-02	3.811941e-02	-3.378408e-02	4.681228e+00
2.631579e-01	-3.291906e-01	-3.292580e-01	-3.098931e-01	3.798998e-02	3.798998e-02	-3.419273e-02	4.665321e+00
2.597403e-01	-3.296191e-01	-3.296866e-01	-3.103051e-01	3.785810e-02	3.785810e-02	-3.459560e-02	4.649512e+00
2.564103e-01	-3.300386e-01	-3.301061e-01	-3.107095e-01	3.772393e-02	3.772393e-02	-3.499279e-02	4.633804e+00
2.531646e-01	-3.304492e-01	-3.305169e-01	-3.111065e-01	3.758764e-02	3.758764e-02	-3.538438e-02	4.618201e+00
2.500000e-01	-3.308514e-01	-3.309192e-01	-3.114962e-01	3.744937e-02	3.744937e-02	-3.577045e-02	4.602707e+00
2.469136e-01	-3.312453e-01	-3.313132e-01	-3.118789e-01	3.730928e-02	3.730928e-02	-3.615110e-02	4.587324e+00
2.439024e-01	-3.316312e-01	-3.316992e-01	-3.122547e-01	3.716749e-02	3.716749e-02	-3.652640e-02	4.572056e+00
2.409639e-01	-3.320093e-01	-3.320774e-01	-3.126238e-01	3.702413e-02	3.702413e-02	-3.689645e-02	4.556904e+00
2.380952e-01	-3.323799e-01	-3.324480e-01	-3.129864e-01	3.687932e-02	3.687932e-02	-3.726133e-02	4.541871e+00
2.352941e-01	-3.327431e-01	-3.328113e-01	-3.133427e-01	3.673317e-02	3.673317e-02	-3.762112e-02	4.526957e+00
2.325581e-01	-3.330991e-01	-3.331674e-01	-3.136927e-01	3.658580e-02	3.658580e-02	-3.797592e-02	4.512164e+00
2.298851e-01	-3.334482e-01	-3.335165e-01	-3.140368e-01	3.643729e-02	3.643729e-02	-3.832579e-02	4.497494e+00
2.272727e-01	-3.337905e-01	-3.338590e-01	-3.143749e-01	3.628776e-02	3.628776e-02	-3.867083e-02	4.482947e+00
2.247191e-01	-3.341263e-01	-3.341948e-01	-3.147073e-01	3.613728e-02	3.613728e-02	-3.901111e-02	4.468524e+00
2.222222e-01	-3.344556e-01	-3.345242e-01	-3.150342e-01	3.598595e-02	3.598595e-02	-3.934672e-02	4.454224e+00
2.197802e-01	-3.347788e-01	-3.348474e-01	-3.153555e-01	3.583384e-02	3.583384e-02	-3.967773e-02	4.440049e+00
2.173913e-01	-3.350958e-01	-3.351645e-01	-3.156715e-01	3.568103e-02	3.568103e-02	-4.000422e-02	4.425998e+00
2.150538e-01	-3.354070e-01	-3.354758e-01	-3.159823e-01	3.552760e-02	3.552760e-02	-4.032628e-02	4.412072e+00
2.127660e-01	-3.357124e-01	-3.357813e-01	-3.162880e-01	3.537360e-02	3.537360e-02	-4.064397e-02	4.398270e+00
2.105263e-01	-3.360122e-01	-3.360811e-01	-3.165887e-01	3.521912e-02	3.521912e-02	-4.095737e-02	4.384592e+00
2.083333e-01	-3.363066e-01	-3.363755e-01	-3.168845e-01	3.506420e-02	3.506420e-02	-4.126656e-02	4.371037e+00
2.061856e-01	-3.365956e-01	-3.366646e-01	-3.171756e-01	3.490892e-02	3.490892e-02	-4.157160e-02	4.357606e+00
2.040816e-01	-3.368794e-01	-3.369486e-01	-3.174621e-01	3.475332e-02	3.475332e-02	-4.187257e-02	4.344296e+00
2.020202e-01	-3.371582e-01	-3.372274e-01	-3.177440e-01	3.459745e-02	3.459745e-02	-4.216954e-02	4.331109e+00
2.000000e-01	-3.374321e-01	-3.375013e-01	-3.180214e-01	3.444137e-02	3.444137e-02	-4.246258e-02	4.318042e+00
1.980198e-01	-3.377011e-01	-3.377704e-01	-3.182945e-01	3.428512e-02	3.428512e-02	-4.275175e-02	4.305096e+00
1.960784e-01	-3.379655e-01	-3.380349e-01	-3.185634e-01	3.412876e-02	3.412876e-02	-4.303712e-02	4.292269e+00
1.941748e-01	-3.382253e-01	-3.382947e-01	-3.188281e-01	3.397231e-02	3.397231e-02	-4.331876e-02	4.279560e+00
1.923077e-01	-3.384806e-01	-3.385501e-01	-3.190887e-01	3.381583e-02	3.381583e-02	-4.359674e-02	4.266970e+00
1.904762e-01	-3.387316e-01	-3.388011e-01	-3.193453e-01	3.365934e-02	3.365934e-02	-4.387110e-02	4.254495e+00
1.886792e-01	-3.389783e-01	-3.390478e-01	-3.195981e-01	3.350290e-02	3.350290e-02	-4.414193e-02	4.242137e+00
1.869159e-01	-3.392208e-01	-3.392904e-01	-3.198470e-01	3.334652e-02	3.334652e-02	-4.440927e-02	4.229893e+00
1.851852e-01	-3.394593e-01	-3.395289e-01	-3.200921e-01	3.319025e-02	3.319025e-02	-4.467318e-02	4.217763e+00
1.834862e-01	-3.396938e-01	-3.397635e-01	-3.203336e-01	3.303412e-02	3.303412e-02	-4.493374e-02	4.205745e+00
1.818182e-01	-3.399244e-01	-3.399942e-01	-3.205715e-01	3.287815e-02	3.287815e-02	-4.519098e-02	4.193838e+00
1.801802e-01	-3.401512e-01	-3.402211e-01	-3.208059e-01	3.272238e-02	3.272238e-02	-4.544497e-02	4.182042e+00
1.785714e-01	-3.403744e-01	-3.404443e-01	-3.210369e-01	3.256683e-02	3.256683e-02	-4.569577e-02	4.170356e+00
1.769912e-01	-3.405939e-01	-3.406638e-01	-3.212644e-01	3.241153e-02	3.241153e-02	-4.594343e-02	4.158777e+00
1.754386e-01	-3.408099e-01	-3.408799e-01	-3.214887e-01	3.225650e-02	3.225650e-02	-4.618800e-02	4.147305e+00
1.739130e-01	-3.410224e-01	-3.410924e-01	-3.217097e-01	3.210176e-02	3.210176e-02	-4.642953e-02	4.135940e+00
1.724138e-01	-3.412316e-01	-3.413016e-01	-3.219275e-01	3.194734e-02	3.194734e-02	-4.666808e-02	4.124679e+00
1.709402e-01	-3.414374e-01	-3.415075e-01	-3.221422e-01	3.179326e-02	3.179326e-02	-4.690370e-02	4.113521e+00
1.694915e-01	-3.416400e-01	-3.417102e-01	-3.223539e-01	3.163954e-02	3.163954e-02	-4.713642e-02	4.102467e+00
1.680672e-01	-3.418395e-01	-3.419097e-01	-3.225625e-01	3.148619e-02	3.148619e-02	-4.736631e-02	4.091513e+00
1.666667e-01	-3.420358e-01	-3.421060e-01	-3.227682e-01	3.133324e-02	3.133324e-02	-4.759342e-02	4.080660e+00
1.652893e-01	-3.422291e-01	-3.422994e-01	-3.229710e-01	3.118070e-02	3.118070e-02	-4.781777e-02	4.069906e+00
1.639344e-01	-3.424195e-01	-3.424898e-01	-3.231710e-01	3.102859e-02	3.102859e-02	-4.803943e-02	4.059249e+00
1.626016e-01	-3.426069e-01	-3.426773e-01	-3.233682e-01	3.087692e-02	3.087692e-02	-4.825843e-02	4.048690e+00
1.612903e-01	-3.427915e-01	-3.428619e-01	-3.235626e-01	3.072571e-02	3.072571e-02	-4.847483e-02	4.038226e+00
1.600000e-01	-3.429733e-01	-3.430437e-01	-3.237544e-01	3.057497e-02	3.057497e-02	-4.868866e-02	4.027857e+00
1.587302e-01	-3.431524e-01	-3.432229e-01	-3.239436e-01	3.042471e-02	3.042471e-02	-4.889996e-02	4.017581e+00
1.574803e-01	-3.433288e-01	-3.433993e-01	-3.241301e-01	3.027496e-02	3.027496e-02	-4.910878e-02	4.007398e+00
1.562500e-01	-3.435026e-01	-3.435731e-01	-3.243142e-01	3.012571e-02	3.012571e-02	-4.931515e-02	3.997306e+00
1.550388e-01	-3.436738e-01	-3.437444e-01	-3.244957e-01	2.997699e-02	2.997699e-02	-4.951912e-02	3.987304e+00
1.538462e-01	-3.438425e-01	-3.439131e-01	-3.246748e-01	2.982879e-02	2.982879e-02	-4.972072e-02	3.977391e+00
1.526718e-01	-3.440088e-01	-3.440794e-01	-3.248515e-01	2.968114e-02	2.968114e-02	-4.992000e-02	3.967566e+00
1.515152e-01	-3.441726e-01	-3.442433e-01	-3.250259e-01	2.953404e-02	2.953404e-02	-5.011698e-02	3.957828e+00
1.503759e-01	-3.443341e-01	-3.444048e-01	-3.251979e-01	2.938750e-02	2.938750e-02	-5.031171e-02	3.948176e+00
1.492537e-01	-3.444932e-01	-3.445640e-01	-3.253677e-01	2.924153e-02	2.924153e-02	-5.050423e-02	3.938609e+00
1.481481e-01	-3.446501e-01	-3.447209e-01	-3.255352e-01	2.909614e-02	2.909614e-02	-5.069456e-02	3.929126e+00
1.470588e-01	-3.448047e-01	-3.448756e-01	-3.257006e-01	2.895134e-02	2.895134e-02	-5.088274e-02	3.919725e+00
1.459854e-01	-3.449572e-01	-3.450281e-01	-3.258637e-01	2.880712e-02	2.880712e-02	-5.106880e-02	3.910407e+00
1.449275e-01	-3.451075e-01	-3.451784e-01	-3.260248e-01	2.866351e-02	2.866351e-02	-5.125279e-02	3.901169e+00
1.438849e-01	-3.452557e-01	-3.453267e-01	-3.261838e-01	2.852050e-02	2.852050e-02	-5.143472e-02	3.892010e+00
1.428571e-01	-3.454019e-01	-3.454729e-01	-3.263407e-01	2.837810e-02	2.837810e-02	-5.161464e-02	3.882931e+00
1.418440e-01	-3.455460e-01	-3.456170e-01	-3.264956e-01	2.823632e-02	2.823632e-02	-5.179258e-02	3.873929e+00
1.408451e-01	-3.456882e-01	-3.457592e-01	-3.266486e-01	2.809517e-02	2.809517e-02	-5.196855e-02	3.865004e+00
1.398601e-01	-3.458284e-01	-3.458994e-01	-3.267996e-01	2.795464e-02	2.795464e-02	-5.214261e-02	3.856155e+00
1.388889e-01	-3.459666e-01	-3.460378e-01	-3.269487e-01	2.781474e-02	2.781474e-02	-5.231476e-02	3.847381e+00
1.379310e-01	-3.461030e-01	-3.461742e-01	-3.270959e-01	2.767548e-02	2.767548e-02	-5.248505e-02	3.838680e+00
1.369863e-01	-3.462376e-01	-3.463088e-01	-3.272412e-01	2.753687e-02	2.753687e-02	-5.265351e-02	3.830053e+00
1.360544e-01	-3.463704e-01	-3.464416e-01	-3.273848e-01	2.739890e-02	2.739890e-02	-5.282015e-02	3.821498e+00
1.351351e-01	-3.465013e-01	-3.465726e-01	-3.275265e-01	2.726158e-02	2.726158e-02	-5.298501e-02	3.813015e+00
1.342282e-01	-3.466306e-01	-3.467018e-01	-3.276665e-01	2.712491e-02	2.712491e-02	-5.314811e-02	3.804602e+00
1.333333e-01	-3.467581e-01	-3.468294e-01	-3.278048e-01	2.698889e-02	2.698889e-02	-5.330948e-02	3.796258e+00
1.324503e-01	-3.468839e-01	-3.469552e-01	-3.279414e-01	2.685354e-02	2.685354e-02	-5.346915e-02	3.787983e+00
1.315789e-01	-3.470081e-01	-3.470795e-01	-3.280763e-01	2.671884e-02	2.671884e-02	-5.362715e-02	3.779776e+00
1.307190e-01	-3.471307e-01	-3.472020e-01	-3.282095e-01	2.658481e-02	2.658481e-02	-5.378349e-02	3.771636e+00
1.298701e-01	-3.472516e-01	-3.473230e-01	-3.283412e-01	2.645145e-02	2.645145e-02	-5.393820e-02	3.763562e+00
1.290323e-01	-3.473710e-01	-3.474425e-01	-3.284712e-01	2.631875e-02	2.631875e-02	-5.409130e-02	3.755554e+00
1.282051e-01	-3.474889e-01	-3.475604e-01	-3.285997e-01	2.618672e-02	2.618672e-02	-5.424283e-02	3.747611e+00
1.273885e-01	-3.476052e-01	-3.476767e-01	-3.287266e-01	2.605537e-02	2.605537e-02	-5.439279e-02	3.739731e+00
1.265823e-01	-3.477201e-01	-3.477916e-01	-3.288520e-01	2.592468e-02	2.592468e-02	-5.454123e-02	3.731914e+00
1.257862e-01	-3.478335e-01	-3.479051e-01	-3.289759e-01	2.579467e-02	2.579467e-02	-5.468815e-02	3.724160e+00
1.250000e-01	-3.479455e-01	-3.480170e-01	-3.290983e-01	2.566534e-02	2.566534e-02	-5.483358e-02	3.716468e+00
1.242236e-01	-3.480560e-01	-3.481276e-01	-3.292193e-01	2.553668e-02	2.553668e-02	-5.497754e-02	3.708836e+00
1.234568e-01	-3.481652e-01	-3.482368e-01	-3.293389e-01	2.540870e-02	2.540870e-02	-5.512005e-02	3.701265e+00
1.226994e-01	-3.482730e-01	-3.483447e-01	-3.294571e-01	2.528139e-02	2.528139e-02	-5.526114e-02	3.693753e+00
1.219512e-01	-3.483794e-01	-3.484511e-01	-3.295738e-01	2.515476e-02	2.515476e-02	-5.540082e-02	3.686300e+00
1.212121e-01	-3.484846e-01	-3.485563e-01	-3.296892e-01	2.502881e-02	2.502881e-02	-5.553911e-02	3.678905e+00
1.204819e-01	-3.485884e-01	-3.486602e-01	-3.298033e-01	2.490354e-02	2.490354e-02	-5.567604e-02	3.671568e+00
1.197605e-01	-3.486910e-01	-3.487628e-01	-3.299161e-01	2.477895e-02	2.477895e-02	-5.581162e-02	3.664288e+00
1.190476e-01	-3.487923e-01	-3.488641e-01	-3.300275e-01	2.465504e-02	2.465504e-02	-5.594588e-02	3.657064e+00
1.183432e-01	-3.488924e-01	-3.489642e-01	-3.301377e-01	2.453180e-02	2.453180e-02	-5.607882e-02	3.649896e+00
1.176471e-01	-3.489913e-01	-3.490631e-01	-3.302466e-01	2.440924e-02	2.440924e-02	-5.621047e-02	3.642783e+00
1.169591e-01	-3.490890e-01	-3.491608e-01	-3.303543e-01	2.428736e-02	2.428736e-02	-5.634085e-02	3.635724e+00
1.162791e-01	-3.491855e-01	-3.492574e-01	-3.304608e-01	2.416616e-02	2.416616e-02	-5.646998e-02	3.628719e+00
1.156069e-01	-3.492808e-01	-3.493527e-01	-3.305660e-01	2.404563e-02	2.404563e-02	-5.659786e-02	3.621768e+00
1.149425e-01	-3.493750e-01	-3.494470e-01	-3.306701e-01	2.392578e-02	2.392578e-02	-5.672453e-02	3.614869e+00
1.142857e-01	-3.494681e-01	-3.495401e-01	-3.307730e-01	2.380661e-02	2.380661e-02	-5.684999e-02	3.608023e+00
1.136364e-01	-3.495601e-01	-3.496321e-01	-3.308747e-01	2.368811e-02	2.368811e-02	-5.697427e-02	3.601228e+00
1.129944e-01	-3.496510e-01	-3.497230e-01	-3.309753e-01	2.357028e-02	2.357028e-02	-5.709738e-02	3.594485e+00
1.123596e-01	-3.497409e-01	-3.498129e-01	-3.310748e-01	2.345312e-02	2.345312e-02	-5.721933e-02	3.587792e+00
1.117318e-01	-3.498296e-01	-3.499017e-01	-3.311732e-01	2.333664e-02	2.333664e-02	-5.734014e-02	3.581150e+00
1.111111e-01	-3.499174e-01	-3.499895e-01	-3.312705e-01	2.322082e-02	2.322082e-02	-5.745983e-02	3.574557e+00
1.104972e-01	-3.500041e-01	-3.500763e-01	-3.313667e-01	2.310568e-02	2.310568e-02	-5.757841e-02	3.568014e+00
1.098901e-01	-3.500899e-01	-3.501620e-01	-3.314619e-01	2.299120e-02	2.299120e-02	-5.769589e-02	3.561520e+00
1.092896e-01	-3.501746e-01	-3.502468e-01	-3.315560e-01	2.287738e-02	2.287738e-02	-5.781230e-02	3.555073e+00
