# Finite Temperature Data for J1J2 Model
# Lx=6, Ly=6, J1=1.0000, J2=0.1250, Fz=0.0000, chi_max=190
# Columns: T | Sigmaz | Cv
# 
2.000000e+01	-1.444075e-09	4.284624e-02
1.000000e+01	-3.676769e-09	1.636886e-01
6.666667e+00	-6.969809e-09	3.503632e-01
5.000000e+00	-8.503170e-09	5.902111e-01
4.000000e+00	-4.290064e-09	8.704659e-01
3.333333e+00	1.175377e-08	1.178670e+00
2.857143e+00	3.959037e-08	1.503120e+00
2.500000e+00	7.956920e-08	1.833253e+00
2.222222e+00	1.355005e-07	2.160187e+00
2.000000e+00	2.097463e-07	2.477197e+00
1.818182e+00	3.025380e-07	2.778908e+00
1.666667e+00	4.099427e-07	3.061281e+00
1.538462e+00	5.221224e-07	3.322030e+00
1.428571e+00	6.322868e-07	3.559914e+00
1.333333e+00	7.375693e-07	3.774658e+00
1.250000e+00	8.364087e-07	3.966922e+00
1.176471e+00	9.284370e-07	4.138184e+00
1.111111e+00	1.014462e-06	4.290548e+00
1.052632e+00	1.095648e-06	4.426319e+00
1.000000e+00	1.172516e-06	4.547622e+00
9.523810e-01	1.244778e-06	4.656478e+00
9.090909e-01	1.311963e-06	4.754933e+00
8.695652e-01	1.374033e-06	4.844997e+00
8.333333e-01	1.431697e-06	4.928475e+00
8.000000e-01	1.486468e-06	5.006872e+00
7.692308e-01	1.540450e-06	5.081471e+00
7.407407e-01	1.595895e-06	5.153465e+00
7.142857e-01	1.654760e-06	5.223994e+00
6.896552e-01	1.718485e-06	5.294100e+00
6.666667e-01	1.788001e-06	5.364695e+00
6.451613e-01	1.863831e-06	5.436537e+00
6.250000e-01	1.946208e-06	5.510236e+00
6.060606e-01	2.035165e-06	5.586271e+00
5.882353e-01	2.130598e-06	5.664999e+00
5.714286e-01	2.232315e-06	5.746683e+00
5.555556e-01	2.340062e-06	5.831508e+00
5.405405e-01	2.453535e-06	5.919604e+00
5.263158e-01	2.572397e-06	6.011061e+00
5.128205e-01	2.696280e-06	6.105951e+00
5.000000e-01	2.824795e-06	6.204332e+00
4.878049e-01	2.957536e-06	6.306264e+00
4.761905e-01	3.094092e-06	6.411808e+00
4.651163e-01	3.234056e-06	6.521034e+00
4.545455e-01	3.377036e-06	6.634014e+00
4.444444e-01	3.522664e-06	6.750825e+00
4.347826e-01	3.670605e-06	6.871540e+00
4.255319e-01	3.820563e-06	6.996225e+00
4.166667e-01	3.972285e-06	7.124930e+00
4.081633e-01	4.125569e-06	7.257690e+00
4.000000e-01	4.280265e-06	7.394515e+00
3.921569e-01	4.436281e-06	7.535396e+00
3.846154e-01	4.593590e-06	7.680302e+00
3.773585e-01	4.752233e-06	7.829186e+00
3.703704e-01	4.912322e-06	7.981975e+00
3.636364e-01	5.074048e-06	8.138569e+00
3.571429e-01	5.237682e-06	8.298826e+00
3.508772e-01	5.403580e-06	8.462556e+00
3.448276e-01	5.572197e-06	8.629506e+00
3.389831e-01	5.744088e-06	8.799368e+00
3.333333e-01	5.919926e-06	8.971782e+00
3.278689e-01	6.100497e-06	9.146352e+00
3.225806e-01	6.286690e-06	9.322670e+00
3.174603e-01	6.479470e-06	9.500338e+00
3.125000e-01	6.679835e-06	9.678994e+00
3.076923e-01	6.888761e-06	9.858324e+00
3.030303e-01	7.107137e-06	1.003808e+01
2.985075e-01	7.335707e-06	1.021806e+01
2.941176e-01	7.575013e-06	1.039814e+01
2.898551e-01	7.825355e-06	1.057824e+01
2.857143e-01	8.086762e-06	1.075828e+01
2.816901e-01	8.358990e-06	1.093824e+01
2.777778e-01	8.641526e-06	1.111809e+01
2.739726e-01	8.933614e-06	1.129779e+01
2.702703e-01	9.234283e-06	1.147730e+01
2.666667e-01	9.542395e-06	1.165658e+01
2.631579e-01	9.856680e-06	1.183557e+01
2.597403e-01	1.017578e-05	1.201421e+01
2.564103e-01	1.049830e-05	1.219244e+01
2.531646e-01	1.082283e-05	1.237017e+01
2.500000e-01	1.114797e-05	1.254732e+01
2.469136e-01	1.147238e-05	1.272380e+01
2.439024e-01	1.179479e-05	1.289949e+01
2.409639e-01	1.211396e-05	1.307427e+01
2.380952e-01	1.242877e-05	1.324797e+01
2.352941e-01	1.273815e-05	1.342042e+01
2.325581e-01	1.304112e-05	1.359142e+01
2.298851e-01	1.333675e-05	1.376075e+01
2.272727e-01	1.362418e-05	1.392819e+01
2.247191e-01	1.390259e-05	1.409348e+01
2.222222e-01	1.417123e-05	1.425640e+01
2.197802e-01	1.442938e-05	1.441673e+01
2.173913e-01	1.467638e-05	1.457424e+01
2.150538e-01	1.491160e-05	1.472877e+01
2.127660e-01	1.513449e-05	1.488014e+01
2.105263e-01	1.534456e-05	1.502824e+01
2.083333e-01	1.554138e-05	1.517297e+01
2.061856e-01	1.572460e-05	1.531428e+01
2.040816e-01	1.589394e-05	1.545215e+01
2.020202e-01	1.604918e-05	1.558659e+01
2.000000e-01	1.619017e-05	1.571762e+01
1.980198e-01	1.631680e-05	1.584531e+01
1.960784e-01	1.642904e-05	1.596971e+01
1.941748e-01	1.652685e-05	1.609091e+01
1.923077e-01	1.661027e-05	1.620898e+01
1.904762e-01	1.667934e-05	1.632395e+01
1.886792e-01	1.673416e-05	1.643583e+01
1.869159e-01	1.677483e-05	1.654458e+01
1.851852e-01	1.680152e-05	1.665012e+01
1.834862e-01	1.681443e-05	1.675230e+01
1.818182e-01	1.681378e-05	1.685098e+01
1.801802e-01	1.679988e-05	1.694603e+01
1.785714e-01	1.677306e-05	1.703731e+01
1.769912e-01	1.673369e-05	1.712473e+01
1.754386e-01	1.668218e-05	1.720821e+01
1.739130e-01	1.661892e-05	1.728767e+01
1.724138e-01	1.654434e-05	1.736305e+01
1.709402e-01	1.645884e-05	1.743431e+01
1.694915e-01	1.636279e-05	1.750142e+01
1.680672e-01	1.625656e-05	1.756435e+01
1.666667e-01	1.614047e-05	1.762311e+01
1.652893e-01	1.601484e-05	1.767767e+01
1.639344e-01	1.587993e-05	1.772799e+01
1.626016e-01	1.573603e-05	1.777396e+01
1.612903e-01	1.558338e-05	1.781540e+01
1.600000e-01	1.542221e-05	1.785209e+01
1.587302e-01	1.525275e-05	1.788369e+01
1.574803e-01	1.507527e-05	1.790986e+01
1.562500e-01	1.489001e-05	1.793025e+01
1.550388e-01	1.469729e-05	1.794459e+01
1.538462e-01	1.449745e-05	1.795273e+01
1.526718e-01	1.429093e-05	1.795469e+01
1.515152e-01	1.407818e-05	1.795066e+01
1.503759e-01	1.385978e-05	1.794098e+01
1.492537e-01	1.363633e-05	1.792610e+01
1.481481e-01	1.340851e-05	1.790647e+01
1.470588e-01	1.317706e-05	1.788247e+01
1.459854e-01	1.294274e-05	1.785426e+01
1.449275e-01	1.270636e-05	1.782168e+01
1.438849e-01	1.246871e-05	1.778407e+01
1.428571e-01	1.223053e-05	1.774015e+01
1.418440e-01	1.199249e-05	1.768797e+01
1.408451e-01	1.175517e-05	1.762503e+01
1.398601e-01	1.151900e-05	1.754874e+01
1.388889e-01	1.128433e-05	1.745702e+01
1.379310e-01	1.105144e-05	1.734877e+01
1.369863e-01	1.082054e-05	1.722407e+01
1.360544e-01	1.059179e-05	1.708403e+01
1.351351e-01	1.036536e-05	1.693047e+01
1.342282e-01	1.014136e-05	1.676555e+01
1.333333e-01	9.919928e-06	1.659145e+01
1.324503e-01	9.701162e-06	1.641020e+01
1.315789e-01	9.485157e-06	1.622356e+01
1.307190e-01	9.271998e-06	1.603291e+01
1.298701e-01	9.061757e-06	1.583928e+01
1.290323e-01	8.854498e-06	1.564338e+01
1.282051e-01	8.650277e-06	1.544572e+01
1.273885e-01	8.449139e-06	1.524666e+01
1.265823e-01	8.251122e-06	1.504650e+01
1.257862e-01	8.056255e-06	1.484553e+01
1.250000e-01	7.864565e-06	1.464407e+01
1.242236e-01	7.676076e-06	1.444242e+01
1.234568e-01	7.490808e-06	1.424090e+01
1.226994e-01	7.308770e-06	1.403986e+01
1.219512e-01	7.129959e-06	1.383959e+01
1.212121e-01	6.954351e-06	1.364041e+01
1.204819e-01	6.781898e-06	1.344257e+01
1.197605e-01	6.612529e-06	1.324630e+01
1.190476e-01	6.446150e-06	1.305174e+01
1.183432e-01	6.282647e-06	1.285895e+01
1.176471e-01	6.121897e-06	1.266787e+01
1.169591e-01	5.963768e-06	1.247834e+01
1.162791e-01	5.808130e-06	1.229013e+01
1.156069e-01	5.654862e-06	1.210295e+01
1.149425e-01	5.503858e-06	1.191651e+01
1.142857e-01	5.355029e-06	1.173054e+01
1.136364e-01	5.208311e-06	1.154488e+01
1.129944e-01	5.063670e-06	1.135945e+01
1.123596e-01	4.921093e-06	1.117425e+01
1.117318e-01	4.780599e-06	1.098933e+01
1.111111e-01	4.642230e-06	1.080472e+01
1.104972e-01	4.506050e-06	1.062038e+01
1.098901e-01	4.372142e-06	1.043617e+01
1.092896e-01	4.240600e-06	1.025189e+01
1.086957e-01	4.111529e-06	1.006731e+01
1.081081e-01	3.985034e-06	9.882274e+00
1.075269e-01	3.861212e-06	9.696765e+00
1.069519e-01	3.740154e-06	9.510904e+00
1.063830e-01	3.621936e-06	9.324951e+00
1.058201e-01	3.506619e-06	9.139269e+00
1.052632e-01	3.394251e-06	8.954276e+00
1.047120e-01	3.284865e-06	8.770398e+00
1.041667e-01	3.178485e-06	8.588040e+00
1.036269e-01	3.075127e-06	8.407557e+00
1.030928e-01	2.974801e-06	8.229247e+00
1.025641e-01	2.877510e-06	8.053348e+00
1.020408e-01	2.783254e-06	7.880047e+00
1.015228e-01	2.692027e-06	7.709486e+00
1.010101e-01	2.603817e-06	7.541771e+00
1.005025e-01	2.518604e-06	7.376976e+00
1.000000e-01	2.436361e-06	7.215147e+00
9.950249e-02	2.357050e-06	7.056311e+00
9.900990e-02	2.280622e-06	6.900474e+00
9.852217e-02	2.207019e-06	6.747635e+00
9.803922e-02	2.136169e-06	6.597786e+00
9.756098e-02	2.067994e-06	6.450920e+00
9.708738e-02	2.002405e-06	6.307038e+00
9.661836e-02	1.939305e-06	6.166146e+00
9.615385e-02	1.878596e-06	6.028257e+00
9.569378e-02	1.820171e-06	5.893391e+00
9.523810e-02	1.763928e-06	5.761570e+00
9.478673e-02	1.709760e-06	5.632817e+00
9.433962e-02	1.657566e-06	5.507147e+00
9.389671e-02	1.607247e-06	5.384570e+00
9.345794e-02	1.558707e-06	5.265084e+00
9.302326e-02	1.511858e-06	5.148670e+00
9.259259e-02	1.466617e-06	5.035293e+00
9.216590e-02	1.422907e-06	4.924896e+00
9.174312e-02	1.380659e-06	4.817403e+00
9.132420e-02	1.339808e-06	4.712718e+00
9.090909e-02	1.300296e-06	4.610729e+00
9.049774e-02	1.262071e-06	4.511313e+00
9.009009e-02	1.225083e-06	4.414346e+00
8.968610e-02	1.189289e-06	4.319702e+00
8.928571e-02	1.154644e-06	4.227269e+00
8.888889e-02	1.121108e-06	4.136947e+00
8.849558e-02	1.088642e-06	4.048654e+00
8.810573e-02	1.057206e-06	3.962330e+00
8.771930e-02	1.026762e-06	3.877932e+00
8.733624e-02	9.972716e-07	3.795435e+00
8.695652e-02	9.686970e-07	3.714828e+00
8.658009e-02	9.410005e-07	3.636107e+00
8.620690e-02	9.141454e-07	3.559276e+00
8.583691e-02	8.880964e-07	3.484336e+00
8.547009e-02	8.628196e-07	3.411286e+00
8.510638e-02	8.382831e-07	3.340117e+00
8.474576e-02	8.144575e-07	3.270813e+00
8.438819e-02	7.913159e-07	3.203349e+00
8.403361e-02	7.688341e-07	3.137692e+00
8.368201e-02	7.469909e-07	3.073799e+00
8.333333e-02	7.257671e-07	3.011626e+00
8.298755e-02	7.051460e-07	2.951120e+00
8.264463e-02	6.851128e-07	2.892226e+00
8.230453e-02	6.712023e-07	3.048324e+00
8.196721e-02	6.526154e-07	3.575465e+00
8.163265e-02	6.345973e-07	3.389149e+00
8.130081e-02	6.169861e-07	3.224232e+00
8.097166e-02	5.998064e-07	3.082446e+00
8.064516e-02	5.830734e-07	2.959022e+00
8.032129e-02	5.667949e-07	2.850292e+00
8.000000e-02	5.509726e-07	2.753413e+00
7.968127e-02	5.356034e-07	2.666174e+00
7.936508e-02	5.206803e-07	2.586843e+00
7.905138e-02	5.057062e-07	2.746832e+00
7.874016e-02	4.921626e-07	2.865688e+00
7.843137e-02	4.797619e-07	2.730577e+00
7.812500e-02	4.682986e-07	2.613866e+00
7.782101e-02	4.576092e-07	2.511849e+00
7.751938e-02	4.475623e-07	2.421677e+00
7.722008e-02	4.380514e-07	2.341150e+00
7.692308e-02	4.292190e-07	2.515861e+00
7.662835e-02	4.196687e-07	2.645532e+00
7.633588e-02	4.098882e-07	2.508155e+00
7.604563e-02	3.999780e-07	2.390846e+00
7.575758e-02	3.900128e-07	2.289570e+00
7.547170e-02	3.803011e-07	2.816844e+00
7.518797e-02	3.696181e-07	3.871289e+00
7.490637e-02	3.591054e-07	3.701297e+00
7.462687e-02	3.485808e-07	3.354253e+00
7.434944e-02	3.373459e-07	3.902810e+00
7.407407e-02	3.273714e-07	3.533418e+00
7.380074e-02	3.178840e-07	3.216891e+00
7.352941e-02	3.088115e-07	2.954933e+00
7.326007e-02	3.005412e-07	2.955156e+00
7.299270e-02	2.922877e-07	2.947882e+00
7.272727e-02	2.839229e-07	3.176214e+00
7.246377e-02	2.760423e-07	3.349405e+00
7.220217e-02	2.684839e-07	3.715089e+00
7.194245e-02	2.608156e-07	3.572401e+00
7.168459e-02	2.532715e-07	3.228512e+00
7.142857e-02	2.458776e-07	2.944654e+00
7.117438e-02	2.386575e-07	2.708635e+00
7.092199e-02	2.316321e-07	2.510976e+00
7.067138e-02	2.248200e-07	2.344259e+00
7.042254e-02	2.182360e-07	2.202648e+00
7.017544e-02	2.118909e-07	2.081529e+00
6.993007e-02	2.057906e-07	1.977233e+00
6.968641e-02	1.999363e-07	1.886833e+00
6.944444e-02	1.943248e-07	1.807978e+00
6.920415e-02	1.889490e-07	1.738776e+00
6.896552e-02	1.837991e-07	1.677689e+00
6.872852e-02	1.788635e-07	1.623462e+00
6.849315e-02	1.741298e-07	1.575059e+00
6.825939e-02	1.695860e-07	1.531613e+00
6.802721e-02	1.652203e-07	1.492392e+00
6.779661e-02	1.610223e-07	1.456767e+00
6.756757e-02	1.569829e-07	1.424198e+00
6.734007e-02	1.530945e-07	1.394221e+00
6.711409e-02	1.493510e-07	1.366439e+00
6.688963e-02	1.457470e-07	1.340524e+00
6.666667e-02	1.422770e-07	1.316215e+00
6.644518e-02	1.389347e-07	1.293315e+00
6.622517e-02	1.357117e-07	1.271673e+00
6.600660e-02	1.325982e-07	1.251165e+00
6.578947e-02	1.295821e-07	1.231669e+00
6.557377e-02	1.266506e-07	1.213058e+00
6.535948e-02	1.237897e-07	1.195190e+00
6.514658e-02	1.209852e-07	1.177920e+00
6.493506e-02	1.182231e-07	1.161105e+00
6.472492e-02	1.154898e-07	1.144615e+00
6.451613e-02	1.127726e-07	1.128344e+00
6.430868e-02	1.100600e-07	1.112216e+00
6.410256e-02	1.073418e-07	1.096185e+00
6.389776e-02	1.046096e-07	1.080221e+00
6.369427e-02	1.018570e-07	1.064302e+00
6.349206e-02	9.908023e-08	1.048401e+00
6.329114e-02	9.627781e-08	1.032481e+00
6.309148e-02	9.345052e-08	1.016497e+00
6.289308e-02	9.060072e-08	1.000401e+00
6.269592e-02	8.773187e-08	9.841576e-01
6.250000e-02	8.484815e-08	9.677554e-01
6.230530e-02	8.195438e-08	9.512252e-01
6.211180e-02	7.905610e-08	9.346428e-01
6.191950e-02	7.615957e-08	9.181206e-01
6.172840e-02	7.327180e-08	9.017868e-01
6.153846e-02	7.040033e-08	8.857587e-01
6.134969e-02	6.755297e-08	8.701159e-01
6.116208e-02	6.473747e-08	8.548834e-01
6.097561e-02	6.196125e-08	8.400339e-01
6.079027e-02	5.923107e-08	8.255090e-01
6.060606e-02	5.655297e-08	8.112490e-01
6.042296e-02	5.393213e-08	7.972215e-01
6.024096e-02	5.137301e-08	7.834353e-01
6.006006e-02	4.887942e-08	7.699395e-01
5.988024e-02	4.645477e-08	7.568137e-01
5.970149e-02	4.410222e-08	7.441548e-01
5.952381e-02	4.182485e-08	7.320640e-01
5.934718e-02	3.962575e-08	7.206343e-01
5.917160e-02	3.750815e-08	7.099400e-01
5.899705e-02	3.547551e-08	7.000307e-01
5.882353e-02	3.353173e-08	6.909294e-01
5.865103e-02	3.168123e-08	6.826342e-01
5.847953e-02	2.992904e-08	6.751223e-01
5.830904e-02	2.828063e-08	6.683561e-01
5.813953e-02	2.674166e-08	6.622929e-01
5.797101e-02	2.531755e-08	6.568951e-01
5.780347e-02	2.401283e-08	6.521393e-01
5.763689e-02	2.283056e-08	6.480206e-01
5.747126e-02	2.177195e-08	6.445501e-01
5.730659e-02	2.083616e-08	6.417491e-01
5.714286e-02	2.002037e-08	6.396417e-01
5.698006e-02	1.931992e-08	6.382482e-01
5.681818e-02	1.872846e-08	6.375778e-01
5.665722e-02	1.823780e-08	6.376220e-01
5.649718e-02	1.783765e-08	6.383476e-01
5.633803e-02	1.751534e-08	6.396921e-01
5.617978e-02	1.725565e-08	6.415638e-01
5.602241e-02	1.704091e-08	6.438477e-01
5.586592e-02	1.685154e-08	6.464140e-01
5.571031e-02	1.666667e-08	6.491293e-01
5.555556e-02	1.646499e-08	6.518649e-01
5.540166e-02	1.622534e-08	6.545004e-01
5.524862e-02	1.592715e-08	6.569227e-01
5.509642e-02	1.555092e-08	6.590212e-01
5.494505e-02	1.507906e-08	6.606827e-01
5.479452e-02	1.449751e-08	6.617898e-01
5.464481e-02	1.379811e-08	6.622242e-01
5.449591e-02	1.298131e-08	6.618724e-01
5.434783e-02	1.205810e-08	6.606311e-01
5.420054e-02	1.105015e-08	6.584151e-01
5.405405e-02	9.987651e-09	6.551715e-01
5.390836e-02	8.905267e-09	6.509008e-01
5.376344e-02	7.837357e-09	6.456702e-01
5.361930e-02	6.813863e-09	6.396034e-01
5.347594e-02	5.857769e-09	6.328432e-01
5.333333e-02	4.984361e-09	6.255012e-01
5.319149e-02	4.201993e-09	6.176214e-01
5.305040e-02	3.513861e-09	6.091882e-01
5.291005e-02	2.920141e-09	6.001834e-01
5.277045e-02	2.419771e-09	5.906488e-01
5.263158e-02	2.011308e-09	5.807074e-01
5.249344e-02	1.692864e-09	5.705432e-01
5.235602e-02	1.461570e-09	5.603701e-01
5.221932e-02	1.313154e-09	5.504046e-01
5.208333e-02	1.241962e-09	5.408449e-01
5.194805e-02	1.241405e-09	5.318553e-01
5.181347e-02	1.304601e-09	5.235598e-01
5.167959e-02	1.424945e-09	5.160401e-01
5.154639e-02	1.596547e-09	5.093377e-01
5.141388e-02	1.814521e-09	5.034571e-01
5.128205e-02	2.075158e-09	4.983713e-01
5.115090e-02	2.375986e-09	4.940253e-01
5.102041e-02	2.715655e-09	4.903357e-01
5.089059e-02	3.093571e-09	4.871864e-01
5.076142e-02	3.509170e-09	4.844233e-01
5.063291e-02	3.960857e-09	4.818555e-01
5.050505e-02	4.444788e-09	4.792662e-01
5.037783e-02	4.953981e-09	4.764381e-01
5.025126e-02	5.478301e-09	4.731937e-01
5.012531e-02	6.005598e-09	4.694438e-01
5.000000e-02	6.523591e-09	4.652180e-01
4.987531e-02	7.021741e-09	4.606510e-01
4.975124e-02	7.492455e-09	4.559303e-01
4.962779e-02	7.931429e-09	4.512388e-01
4.950495e-02	8.337311e-09	4.467195e-01
4.938272e-02	8.711010e-09	4.424667e-01
4.926108e-02	9.054927e-09	4.385314e-01
4.914005e-02	9.372294e-09	4.349327e-01
4.901961e-02	9.666674e-09	4.316688e-01
4.889976e-02	9.941629e-09	4.287250e-01
4.878049e-02	1.020052e-08	4.260800e-01
4.866180e-02	1.044640e-08	4.237095e-01
4.854369e-02	1.068197e-08	4.215890e-01
4.842615e-02	1.090958e-08	4.196945e-01
4.830918e-02	1.113118e-08	4.180042e-01
4.819277e-02	1.134841e-08	4.164981e-01
4.807692e-02	1.156257e-08	4.151584e-01
4.796163e-02	1.177462e-08	4.139698e-01
4.784689e-02	1.198523e-08	4.129191e-01
4.773270e-02	1.219481e-08	4.119953e-01
4.761905e-02	1.240344e-08	4.111890e-01
4.750594e-02	1.261097e-08	4.104927e-01
4.739336e-02	1.281699e-08	4.098995e-01
4.728132e-02	1.302083e-08	4.094033e-01
4.716981e-02	1.322154e-08	4.089976e-01
4.705882e-02	1.341794e-08	4.086759e-01
4.694836e-02	1.360860e-08	4.084311e-01
4.683841e-02	1.379182e-08	4.082555e-01
4.672897e-02	1.396565e-08	4.081413e-01
4.662005e-02	1.412790e-08	4.080803e-01
4.651163e-02	1.427614e-08	4.080648e-01
4.640371e-02	1.440774e-08	4.080877e-01
4.629630e-02	1.451989e-08	4.081425e-01
4.618938e-02	1.460961e-08	4.082236e-01
4.608295e-02	1.467385e-08	4.083264e-01
4.597701e-02	1.470957e-08	4.084470e-01
4.587156e-02	1.471379e-08	4.085828e-01
4.576659e-02	1.468373e-08	4.087322e-01
4.566210e-02	1.461697e-08	4.088951e-01
4.555809e-02	1.451154e-08	4.090727e-01
4.545455e-02	1.436609e-08	4.092682e-01
4.535147e-02	1.418001e-08	4.094863e-01
4.524887e-02	1.395353e-08	4.097330e-01
4.514673e-02	1.368778e-08	4.100147e-01
4.504505e-02	1.338480e-08	4.103378e-01
4.494382e-02	1.304755e-08	4.107076e-01
4.484305e-02	1.267983e-08	4.111275e-01
4.474273e-02	1.228620e-08	4.115984e-01
4.464286e-02	1.187185e-08	4.121180e-01
4.454343e-02	1.144248e-08	4.126800e-01
4.444444e-02	1.100412e-08	4.132741e-01
4.434590e-02	1.056305e-08	4.138848e-01
4.424779e-02	1.012557e-08	4.144919e-01
4.415011e-02	9.697935e-09	4.150705e-01
4.405286e-02	9.286180e-09	4.155929e-01
4.395604e-02	8.896045e-09	4.160301e-01
4.385965e-02	8.532877e-09	4.163558e-01
4.376368e-02	8.201545e-09	4.165493e-01
4.366812e-02	7.906329e-09	4.165989e-01
4.357298e-02	7.650782e-09	4.165050e-01
4.347826e-02	7.437559e-09	4.162810e-01
4.338395e-02	7.268286e-09	4.159540e-01
4.329004e-02	7.143529e-09	4.155623e-01
4.319654e-02	7.062881e-09	4.151506e-01
4.310345e-02	7.025143e-09	4.147649e-01
4.301075e-02	7.028528e-09	4.144473e-01
4.291845e-02	7.070817e-09	4.142341e-01
4.282655e-02	7.149450e-09	4.141551e-01
4.273504e-02	7.261549e-09	4.142364e-01
4.264392e-02	7.403900e-09	4.145024e-01
4.255319e-02	7.572963e-09	4.149786e-01
4.246285e-02	7.764929e-09	4.156923e-01
4.237288e-02	7.975856e-09	4.166719e-01
4.228330e-02	8.201867e-09	4.179470e-01
4.219409e-02	8.439346e-09	4.195465e-01
4.210526e-02	8.685072e-09	4.214959e-01
4.201681e-02	8.936238e-09	4.238123e-01
4.192872e-02	9.190343e-09	4.264975e-01
4.184100e-02	9.445067e-09	4.295340e-01
4.175365e-02	9.698204e-09	4.328856e-01
4.166667e-02	9.947768e-09	4.365055e-01
4.158004e-02	1.019224e-08	4.403475e-01
4.149378e-02	1.043085e-08	4.443771e-01
4.140787e-02	1.066362e-08	4.485798e-01
4.132231e-02	1.089125e-08	4.529648e-01
4.123711e-02	1.111468e-08	4.575649e-01
4.115226e-02	1.133459e-08	4.624299e-01
4.106776e-02	1.155092e-08	4.676163e-01
4.098361e-02	1.176259e-08	4.731742e-01
4.089980e-02	1.196740e-08	4.791380e-01
4.081633e-02	1.216217e-08	4.855192e-01
4.073320e-02	1.234289e-08	4.923044e-01
4.065041e-02	1.250514e-08	4.994560e-01
4.056795e-02	1.264442e-08	5.069160e-01
4.048583e-02	1.275675e-08	5.146152e-01
4.040404e-02	1.283924e-08	5.224833e-01
4.032258e-02	1.289053e-08	5.304570e-01
4.024145e-02	1.291094e-08	5.384777e-01
4.016064e-02	1.290234e-08	5.464815e-01
4.008016e-02	1.286783e-08	5.543838e-01
4.000000e-02	1.281128e-08	5.620680e-01
3.992016e-02	1.273699e-08	5.693813e-01
3.984064e-02	1.264928e-08	5.761399e-01
3.976143e-02	1.255222e-08	5.821413e-01
3.968254e-02	1.244936e-08	5.871813e-01
3.960396e-02	1.234365e-08	5.910734e-01
3.952569e-02	1.223745e-08	5.936683e-01
3.944773e-02	1.213258e-08	5.948700e-01
3.937008e-02	1.203043e-08	5.946451e-01
3.929273e-02	1.193204e-08	5.930239e-01
